Pressure-independent part of Rayleigh scattering, in increasing wavenumber
55
2222.2 1.756E-06
5000.0 8.931E-06
5555.6 1.399E-05
6250.0 1.830E-05
6369.4 1.976E-05
6493.5 2.136E-05
6622.5 2.314E-05
6756.8 2.510E-05
6896.6 2.727E-05
7042.3 2.969E-05
7194.2 3.238E-05
7352.9 3.538E-05
7518.8 3.874E-05
7692.3 4.250E-05
7874.0 4.674E-05
8064.5 5.152E-05
8264.5 5.692E-05
8474.6 6.305E-05
8695.7 7.004E-05
8928.6 7.802E-05
9174.3 8.716E-05
9434.0 9.770E-05
9708.7 1.099E-04
10000.0 1.240E-04
10309.3 1.405E-04
10638.3 1.598E-04
10989.0 1.826E-04
11363.6 2.096E-04
11764.7 2.418E-04
12195.1 2.732E-04
12500.0 3.024E-04
12820.5 3.355E-04
13157.9 3.733E-04
13513.5 4.049E-04
13888.9 4.407E-04
14285.7 4.941E-04
14705.9 5.737E-04
15151.5 6.683E-04
15625.0 7.343E-04
16129.0 8.105E-04
16666.7 9.268E-04
17241.4 1.105E-03
17857.1 1.324E-03
18518.5 1.543E-03
19230.8 1.808E-03
20000.0 2.133E-03
20833.3 2.536E-03
21739.1 3.039E-03
22727.3 3.674E-03
23809.5 4.487E-03
25000.0 5.540E-03
26315.8 6.926E-03
27777.8 8.780E-03
29411.8 1.131E-02
31250.0 1.484E-02
